Section_id,Symmetry_id,Alternative_id,Start_location,End_location,Start_location_mile,End_location_mile,Track_id,Curve_degree,Curve_direction,Cant_to_add,Cant,orig_cant,Max_speed,Max_speed_freight,Curve_radius,Max_speed_calc,Notes,,,,,
1,1,,0,160.9,229,228.9,2,0,,,,,,,,,,,Track Gauge,1435 mm,4.708005,1500? Outside-outside
2,2,,160.9,482.7,228.9,228.7,2,10.48333333,0,5.75,6.25,0.5,,,546.5418126,,Curve radius is in ft,,Allowed CD (CR),3 in,3,
3,3,,482.7,1222.84,228.7,228.24,2,0,,,0,,,,,,,,,,,
4,4,,1222.84,2172.15,228.24,227.65,2,3.416666667,1,6.25,6.25,0,,,1676.950244,,,,,,,
5,5,,2172.15,2445.68,227.65,227.48,2,0,,,0,,,,,,,,FLIRT_MaxCD,5,inches,
6,6,,2445.68,2574.4,227.48,227.4,2,0.716666667,1,6.25,6.25,0,,,7994.762791,,,,,,,
7,7,,2574.4,2654.85,227.4,227.35,2,0,,,0,,,,,,,,,,,
8,8,,2654.85,2735.3,227.35,227.3,2,9.5,1,4.25,6.25,2,,,603.1136842,,,,,,,
9,9,,2735.3,2815.75,227.3,227.25,2,0,,,0,,,,,,,,,,,
10,10,,2815.75,2976.65,227.25,227.15,2,1.133333333,0,3.25,6.25,3,,,5055.511765,,,,,,,
11,11,,2976.65,3620.25,227.15,226.75,2,0,,,0,,,,,,,,,,,
12,12,,3620.25,3732.88,226.75,226.68,2,0,,,0,,,,,,,,,,,
13,13,,3732.88,3829.42,226.68,226.62,2,0,,,0,,,,,,,,,,,
14,14,,3829.42,3958.14,226.62,226.54,2,0,,,0,,,,,,,,,,,
15,15,,3958.14,4119.04,226.54,226.44,2,0,,,0,,,,,,,,,,,
16,16,,4119.04,4231.67,226.44,226.37,2,0,,,0,,,,,,,,,,,
17,17,,4231.67,4344.3,226.37,226.3,2,0,,,0,,,,,,,,,,,
18,18,,4344.3,4424.75,226.3,226.25,2,0,,,0,,,,,,,,,,,
19,19,,4424.75,4473.02,226.25,226.22,2,0,,,0,,,,,,,,,,,
20,20,,4473.02,5470.6,226.22,225.6,2,1,1,1.25,6.25,5,,,5729.58,,,,,,,
21,21,,5470.6,5711.95,225.6,225.45,2,0,,,0,,,,,,,,,,,
22,22,,5711.95,6114.2,225.45,225.2,2,1.283333333,0,0.25,6.25,6,,,4464.607792,,,,,,,
23,23,,6114.2,6226.83,225.2,225.13,2,0,,,0,,,,,,,,,,,
24,24,,6226.83,6725.62,225.13,224.82,2,1.066666667,1,1.5,6.25,4.75,,,5371.48125,,,,,,,
25,25,,6725.62,6999.15,224.82,224.65,2,0,,,0,,,,,,,,,,,
26,26,,6999.15,7369.22,224.65,224.42,2,0.85,0,2.25,6.25,4,,,6740.682353,,,,,,,
27,27,,7369.22,8398.98,224.42,223.78,2,0,  ,,0,,,,,,,,,,,
28,28,,8398.98,8527.7,223.78,223.7,2,0.233333333,0,1.114736477,1.114736477,0,,,24555.34286,,,,,,,
29,29,,8527.7,9074.76,223.7,223.36,2,0,,,0,,,,,,,,,,,
30,30,,9074.76,9830.99,223.36,222.89,2,1.133333333,1,3.25,6.25,3,,,5055.511765,,,,,,,
31,31,,9830.99,10201.06,222.89,222.66,2,0,,,0,,,,,,,,,,,
32,32,,10201.06,10555.04,222.66,222.44,2,1.216666667,0,2.75,6.25,3.5,,,4709.243836,,,,,,,
33,33,,10555.04,12872,222.44,221,2,0,,,0,,,,,,,,,,,
34,34,,12872,13129.44,221,220.84,2,1,0,2.25,6.25,4,,,5729.58,,,,,,,
35,35,,13129.44,20579.11,220.84,216.21,2,0,,,0,,,,,,,,,,,
36,36,,20579.11,21206.62,216.21,215.82,2,1,1,2.12,6.25,4.13,,,5729.58,,,,,,,
37,37,,21206.62,24231.54,215.82,213.94,2,0,,,0,,,,,,,,,,,
38A,38A,,24231.54,24842.96,213.94,213.56,2,1.05,0,2,6.25,4.25,,,5456.742857,,,,,,,
38B,38B,,24842.96,25454.38,213.56,213.18,2,1,0,2,6.25,4.25,,,5729.58,,,,,,,
39,39,,25454.38,25792.27,213.18,212.97,2,0,,,0,,,,,,,,,,,
40,40,,25792.27,26451.96,212.97,212.56,2,1,0,2,6.25,4.25,,,5729.58,,,,,,,
41,41,,26451.96,27755.25,212.56,211.75,2,0,,,0,,,,,,,,,,,
42,42,,27755.25,28077.05,211.75,211.55,2,1,1,2,6.25,4.25,,,5729.58,,,,,,,
43,43,,28077.05,28785.01,211.55,211.11,2,0,,,0,,,,,,,,,,,
44,44,,28785.01,28962,211.11,211,2,1,1,1.25,6.25,5,,,5729.58,,,,,,,
45,45,,28962,30249.2,211,210.2,2,0,,,0,,,,,,,,,,,
46,46,,30249.2,30619.27,210.2,209.97,2,1.066666667,1,2.25,6.25,4,,,5371.48125,,,,,,,
47,47,,30619.27,35156.65,209.97,207.15,2,0,,,0,,,,,,,,,,,
48,48,,35156.65,35526.72,207.15,206.92,2,1,0,1.5,6.25,4.75,,,5729.58,,,,,,,
49,49,,35526.72,38085.03,206.92,205.33,2,0,,,0,,,,,,,,,,,
50,50,,38085.03,38455.1,205.33,205.1,2,1,0,1.5,6.25,4.75,,,5729.58,,,,,,,
51,51,,38455.1,54866.9,205.1,194.9,2,0,,,0,,,,,,,,,,,
52A,52A,,54866.9,55371.05333,194.9,194.5866667,2,1.566666667,0,0.75,6.25,5.5,,,3657.178723,,,,,,,
52B,52B,,55371.05333,55875.20667,194.5866667,194.2733333,2,1,0,0.75,6.25,5.5,,,5729.58,,,,,,,
52C,52C,,55875.20667,56379.36,194.2733333,193.96,2,1.566666667,0,0.75,6.25,5.5,,,3657.178723,,,,,,,
53,53,,56379.36,61206.36,193.96,190.96,2,0,,,0,,,,,,,,,,,
54A,54A,,61206.36,61335.08,190.96,190.88,2,3.016666667,1,2.75,6.25,3.5,,,1899.308287,,,,,,,
54B,54B,,61335.08,61544.25,190.88,190.75,2,2.833333333,1,2.75,6.25,3.5,,,2022.204706,,,,,,,
54C,54C,,61544.25,61785.6,190.75,190.6,2,1.366666667,1,2.75,6.25,3.5,,,4192.37561,,,,,,,
54D,54D,,61785.6,61978.68,190.6,190.48,2,1.05,1,1,6.25,5.25,,,5456.742857,,,,,,,
54E,54E,,61978.68,62171.76,190.48,190.36,2,0.816666667,1,1,6.25,5.25,,,7015.812245,,,,,,,
55,55,,62171.76,62638.37,190.36,190.07,2,0,,,0,,,,,,,,,,,
56,56,,62638.37,62927.99,190.07,189.89,2,3.25,0,2.25,6.25,4,,,1762.947692,,,,,,,
57,57,,62927.99,63716.4,189.89,189.4,2,0,,,0,,,,,,,,,,,
58,58,,63716.4,63989.93,189.4,189.23,2,4,1,2,6.25,4.25,,,1432.395,,,,,,,
59,59,,63989.93,64102.56,189.23,189.16,2,0,,,0,,,,,,,,,,,
60,60,,64102.56,64231.28,189.16,189.08,2,0.5,1,5.75,6.25,0.5,,,11459.16,,,,,,,
61,61,,64231.28,64343.91,189.08,189.01,2,0,,,0,,,,,,,,,,,
62,62,,64343.91,64456.54,189.01,188.94,2,0.5,0,6,6.25,0.25,,,11459.16,,,,,,,
63,63,,64456.54,65164.5,188.94,188.5,2,0,,,0,,,,,,,,,,,
64,64,,65164.5,65341.49,188.5,188.39,2,1,1,3.5,6.25,2.75,,,5729.58,,,,,,,
65,65,,65341.49,65438.03,188.39,188.33,2,0,,,0,,,,,,,,,,,
66,66,,65438.03,65615.02,188.33,188.22,2,1,1,3.87,6.25,2.38,,,5729.58,,,,,,,
67,67,,65615.02,65969,188.22,188,2,0,,,0,,,,,,,,,,,
68,68,,65969,66322.98,188,187.78,2,1,0,4.5,6.25,1.75,,,5729.58,,,,,,,
69,69,,66322.98,66757.41,187.78,187.51,2,0,,,0,,,,,,,,,,,
70,70,,66757.41,67014.85,187.51,187.35,2,1,1,3.62,6.25,2.63,,,5729.58,,,,,,,
71,71,,67014.85,67175.75,187.35,187.25,2,0,,,0,,,,,,,,,,,
72,72,,67175.75,67417.1,187.25,187.1,2,2.016666667,0,2.62,6.25,3.63,,,2841.11405,,,,,,,
73,73,,67417.1,67497.55,187.1,187.05,2,0,,,0,,,,,,,,,,,
74,74,,67497.55,67658.45,187.05,186.95,2,1.683333333,1,3.25,6.25,3,,,3403.710891,,,,,,,
75,75,,67658.45,67771.08,186.95,186.88,2,0,,,0,,,,,,,,,,,
76A,76A,,67771.08,68007.06667,186.88,186.7333333,2,2.75,1,2.25,6.25,4,,,2083.483636,,,,,,,
76B,76B,,68007.06667,68243.05333,186.7333333,186.5866667,2,4,1,2.25,6.25,4,,,1432.395,,,,,,,
76C,76C,,68243.05333,68479.04,186.5866667,186.44,2,1.5,1,2.25,6.25,4,,,3819.72,,,,,,,
77,77,,68479.04,69219.18,186.44,185.98,2,0,,,0,,,,,,,,,,,
78,78,,69219.18,69508.8,185.98,185.8,2,1.6,0,5.12,6.25,1.13,,,3580.9875,,,,,,,
79,79,,69508.8,69540.98,185.8,185.78,2,0,,,0,,,,,,,,,,,
80A,80A,,69540.98,69637.52,185.78,185.72,2,9.766666667,0,4.62,6.25,1.63,,,586.6464164,,,,,,,
80B,80B,,69637.52,69734.06,185.72,185.66,2,9.833333333,0,4.62,6.25,1.63,,,582.6691525,,,,,,,
80C,80C,,69734.06,69959.32,185.66,185.52,2,1.483333333,0,4.62,6.25,1.63,,,3862.638202,,,,,,,
80D,80D,,69959.32,70120.22,185.52,185.42,2,1.5,0,4.62,6.25,1.63,,,3819.72,,,,,,,
80E,80E,,70120.22,70265.03,185.42,185.33,2,5.316666667,0,4.62,6.25,1.63,,,1077.66395,,,,,,,
80F,80F,,70265.03,70425.93,185.33,185.23,2,5.1,0,4.62,6.25,1.63,,,1123.447059,,,,,,,
81,81,,70425.93,70522.47,185.23,185.17,2,0,,,0,,,,,,,,,,,
82,82,,70522.47,70667.28,185.17,185.08,2,2,1,5.12,6.25,1.13,,,2864.79,,,,,,,
83,83,,70667.28,70828.18,185.08,184.98,2,0,,,0,,,,,,,,,,,
84A,84A,,70828.18,70908.63,184.98,184.93,2,2.233333333,0,5,6.25,1.25,,,2565.483582,,,,,,,
84B,84B,,70908.63,71005.17,184.93,184.87,2,2.366666667,0,5,6.25,1.25,,,2420.949296,,,,,,,
85,85,,71005.17,71085.62,184.87,184.82,2,0,,,0,,,,,,,,,,,
86,86,,71085.62,71246.52,184.82,184.72,2,3,1,4.62,6.25,1.63,,,1909.86,,,,,,,
87,87,,71246.52,71423.51,184.72,184.61,2,0,,,0,,,,,,,,,,,
88A,88A,,71423.51,71745.31,184.61,184.41,2,3,1,3.25,6.25,3,,,1909.86,,,,,,,
88B,88B,,71745.31,72067.11,184.41,184.21,2,1.95,1,3.25,6.25,3,,,2938.246154,,,,,,,
89,89,,72067.11,72405,184.21,184,2,0,,,0,,,,,,,,,,,
90,90,,72405,72614.17,184,183.87,2,3.3,1,2.87,6.25,3.38,,,1736.236364,,,,,,,
91,91,,72614.17,72742.89,183.87,183.79,2,0,,,0,,,,,,,,,,,
92A,92A,,72742.89,72855.52,183.79,183.72,2,0.216666667,1,0.682556452,0.682556452,0,,,26444.21538,,,,,,,
92B,92B,,72855.52,72952.06,183.72,183.66,2,0.166666667,1,0,0,0,,,34377.48,,,,,,,
93,93,,72952.06,73885.28,183.66,183.08,2,0,,,0,,,,,,,,,,,
94A,94A,,73885.28,74255.35,183.08,182.85,2,4,1,0.75,6.25,5.5,,,1432.395,,,,,,,
94B,94B,,74255.35,74641.51,182.85,182.61,2,4.166666667,1,0.75,6.25,5.5,,,1375.0992,,,,,,,
95,95,,74641.51,75542.55,182.61,182.05,2,0,,,0,,,,,,,,,,,
96,96,,75542.55,75703.45,182.05,181.95,2,4.95,0,0.75,6.25,5.5,,,1157.490909,,,,,,,
97,97,,75703.45,76958.47,181.95,181.17,2,0,,,0,,,,,,,,,,,
98,98,,76958.47,77505.53,181.17,180.83,2,1.75,0,0.75,6.25,5.5,,,3274.045714,,,,,,,
99,99,,77505.53,81608.48,180.83,178.28,2,0,,,0,,,,,,,,,,,
100,100,,81608.48,81672.84,178.28,178.24,2,0.03,1,0,0.38,0.38,,,190986,51617.83784,,,,,,
101,101,,81672.84,82235.99,178.24,177.89,2,0,,,0,,,,,0,,,,,,
102,102,,82235.99,82396.89,177.89,177.79,2,0.04,1,0,0.75,0.75,,,143239.5,38713.37838,,,,,,
103,103,,82396.89,87947.94,177.79,174.34,2,0,,,0,,,,,0,,,,,,
104,104,,87947.94,88591.54,174.34,173.94,2,1.55,1,0.37,6.25,5.88,,,3696.503226,999.0549259,,,,,,
105,105,,88591.54,89605.21,173.94,173.31,2,0,,,0,,,,,0,,,,,,
106,106,,89605.21,89878.74,173.31,173.14,2,1.25,0,1.12,6.25,5.13,,,4583.664,1238.828108,,,,,,
107,107,,89878.74,91230.3,173.14,172.3,2,0,,,0,,,,,0,,,,,,
108A,108A,,91230.3,91471.65,172.3,172.15,2,1.483333333,0,1.12,6.25,5.13,,,3862.638202,1043.956271,,,,,,
108B,108B,,91471.65,91793.45,172.15,171.95,2,1.266666667,0,1.87,6.25,4.38,,,4523.352632,1222.527738,,,,,,
108C,108C,,91793.45,92099.16,171.95,171.76,2,1.05,0,2.75,6.25,3.5,,,5456.742857,1474.795367,,,,,,
109,109,,92099.16,93482.9,171.76,170.9,2,0,,,0,,,,,0,,,,,,
110,110,,93482.9,93563.35,170.9,170.85,2,0.983333333,1,1.12,6.25,5.13,,,5826.691525,1574.781493,,,,,,
111,111,,93563.35,96781.35,170.85,168.85,2,0,,,0,,,,,0,,,,,,
112,112,,96781.35,97022.7,168.85,168.7,2,0.03,0,0,0.38,0.38,,,190986,51617.83784,,,,,,
113,113,,97022.7,98374.26,168.7,167.86,2,0,,,0,,,,,0,,,,,,
114,114,,98374.26,98535.16,167.86,167.76,2,0.096666667,1,0,0.38,0.38,,,59271.51724,16019.32898,,,,,,
115,115,,98535.16,98583.43,167.76,167.73,2,0,,,0,,,,,0,,,,,,
116,116,,98583.43,98728.24,167.73,167.64,2,0.09,0,0,0.38,0.38,,,63662,17205.94595,,,,,,
117,117,,98728.24,102895.55,167.64,165.05,2,0,,,0,,,,,0,,,,,,
292,292,,102895.55,110357.55,,,2,0,,,0,,,,,0,,,,,,
293,293,,110357.55,112273.55,,,2,1.16454878,0,,6.25,,,,4920,1329.72973,,,,,,
293,293,AlignmentChangeA,110357.55,112273.55,,,2,0.58227439,1,,6.25,,,,9840,2659.459459,,,,,,
294,294,,112273.55,114423.55,,,2,0,,,0,,,,,0,,,,,,
295,295,Start of old vs new,114423.55,120323.55,,,2,0,,,0,,,,,0,,,,,,
296,296,continuation of old,120323.55,121418.55,,,2,1.588021064,1,,6.25,,,,3608,975.1351351,,,,,,
297,297,,121418.55,121868.55,,,2,0,,,0,,,,,0,,,,,,
298,298,,121868.55,122508.55,,,2,1.588021064,1,,6.25,,,,3608,975.1351351,,,,,,
299,299,,122508.55,123596.55,,,2,0,,,0,,,,,0,,,,,,
300,300,,123596.55,124596.55,,,2,2.183528963,0,,6.25,,,,2624,709.1891892,,,,,,
301,301,,124596.55,125979.55,,,2,0,,,0,,,,,0,,,,,,
302,302,,125979.55,126649.55,,,2,1.343710131,1,,6.25,,,,4264,1152.432432,,,,,,
303,303,,126649.55,128728.55,,,2,0,,,0,,,,,0,,,,,,
304,304,,128728.55,129888.55,,,2,1.588021064,0,,6.25,,,,3608,975.1351351,,,,,,
305,305,,129888.55,130858.55,,,2,0,,,0,,,,,,,,,,,
306,306,,130858.55,131892.55,,,2,1.455685976,1,,6.25,,,,3936,,,,,,,
307,307,,131892.55,135052.55,,,2,0,,,0,,,,,,,,,,,
308,308,,135052.55,135680.55,,,2,1.588021064,0,,6.25,,,,3608,,,,,,,
309,309,,135680.55,136494.55,,,2,0,,,0,,,,,,,,,,,
310,310,,136494.55,137414.55,,,2,1.940914634,1,,6.25,,,,2952,,,,,,,
311,311,,137414.55,140564.55,,,2,0,,,0,,,,,,,,,,,
312,312,,140564.55,141184.55,,,2,2.329097561,0,,6.25,,,,2460,,,,,,,
313,313,,141184.55,141744.55,,,2,0,,,0,,,,,,,,,,,
314,314,,141744.55,142667,,,2,1.98502633,0,,6.25,,,,2886.4,,,,,,,
315,315,,142667,144049,,,2,0,,,0,,,,,,,,,,,
316,316,,144049,145137,,,2,1.940914634,1,,6.25,,,,2952,,,,,,,
317,317,,145137,145752,,,2,0,,,0,,,,,,,,,,,
318,318,,145752,146672,,,2,2.055086083,0,,6.25,,,,2788,,,,,,,
319,319,,146672,150052,,,2,0,,,0,,,,,,,,,,,
320,320,,150052,150712,,,2,3.881829268,1,,6.25,,,,1476,,,,,,,
321,321,,150712,151142,,,2,0,,,0,,,,,,,,,,,
322,322,,151142,151682,,,2,2.392908453,0,,6.25,,,,2394.4,,,,,,,
323,323,,151682,151937,,,2,0,,,0,,,,,,,,,,,
324,324,,151937,152497,,,2,2.911371951,0,,6.25,,,,1968,,,,,,,
325,325,,152497,153122,,,2,0,,,0,,,,,,,,,,,
326,326,,153122,153848,,,2,1.588021064,1,,6.25,,,,3608,,,,,,,
327,327,,153848,154298,,,2,0,,,0,,,,,,,,,,,
328,328,,154298,154828,,,2,3.234857724,1,,6.25,,,,1771.2,,,,,,,
329,329,,154828,156586,,,2,0,,,0,,,,,,,,,,,
330,330,,156586,157176,,,2,4.367057927,0,,6.25,,,,1312,,,,,,,
331,331,,157176,157886,,,2,0,,,0,,,,,,,,,,,
332,332,,157886,158556,,,2,2.183528963,0,,6.25,,,,2624,,,,,,,
333,333,,158556,159494,,,2,0,,,0,,,,,,,,,,,
334,334,,159494,160134,,,2,1.343710131,1,,6.25,,,,4264,,,,,,,
335,335,,160134,160684,,,2,0,,,0,,,,,,,,,,,
336,336,,160684,161224,,,2,2.055086083,1,,6.25,,,,2788,,,,,,,
337,337,,161224,161559,,,2,0,,,0,,,,,,,,,,,
338,338,,161559,162013,,,2,3.011764087,1,,6.25,,,,1902.4,,,,,,,
339,339,,162013,162173,,,2,0,,,0,,,,,,,,,,,
340,340,,162173,162690,,,2,1.455685976,1,,6.25,,,,3936,,,,,,,
341,341,,162690,164946,,,2,0,,,0,,,,,,,,,,,
342,342,,164946,165696,,,2,0.998184669,0,,6.25,,,,5740,,,,,,,
343,343,,165696,166746,,,2,0,,,0,,,,,,,,,,,
344,344,,166746,167122,,,2,3.493646341,1,,6.25,,,,1640,,,,,,,
345,345,,167122,167622,,,2,1.588021064,0,,6.25,,,,3608,,,,,,,
346,346,,167622,168087,,,2,0,,,0,,,,,,,,,,,
347,347,,168087,168417,,,2,4.658195122,1,,6.25,,,,1230,,,,,,,
348,348,,168417,169677,,,2,1.455685976,0,,6.25,,,,3936,,,,,,,
349,349,,169677,170190,,,2,0,,,0,,,,,,,,,,,
350,350,,170190,170560,,,2,3.176042129,0,,6.25,,,,1804,,,,,,,
351,351,,170560,171481,,,2,0,,,0,,,,,,,,,,,
352,352,,171481,172031,,,2,6.238654181,0,,6.25,,,,918.4,,,,,,,
353,353,,172031,172351,,,2,0,,,0,,,,,,,,,,,
354,354,,172351,172626,,,2,8.318205575,1,,6.25,,,,688.8,,,,,,,
355,355,,172626,172776,,,2,0,,,0,,,,,,,,,,,
356,356,,172776,173096,,,2,3.234857724,0,,6.25,,,,1771.2,,,,,,,
357,357,,173096,174596,,,2,0,,,0,,,,,,,,,,,
358,358,,174596,175036,,,2,3.881829268,1,,6.25,,,,1476,,,,,,,
359,359,,175036,175336,,,2,0,,,0,,,,,,,,,,,
360,360,,175336,175876,,,2,1.343710131,1,,6.25,,,,4264,,,,,,,
361,361,,175876,177116,,,2,0,,,0,,,,,,,,,,,
362,362,,177116,177646,,,2,2.568857604,0,,6.25,,,,2230.4,,,,,,,
363,363,,177646,178246,,,2,0,,,0,,,,,,,,,,,
364,364,,178246,178806,,,2,2.687420263,0,,6.25,,,,2132,,,,,,,
365,365,,178806,178986,,,2,0,,,0,,,,,,,,,,,
366,366,,178986,179146,,,2,2.911371951,1,,6.25,,,,1968,,,,,,,
367,367,,179146,179666,,,2,0,,,0,,,,,,,,,,,
368,368,,179666,180166,,,2,2.646701774,1,,6.25,,,,2164.8,,,,,,,
369,369,,180166,180966,,,2,0,,,0,,,,,,,,,,,
370,370,,180966,181716,,,2,3.011764087,1,,6.25,,,,1902.4,,,,,,,
371,371,,181716,181816,,,2,0,,,0,,,,,,,,,,,
372,372,,181816,182276,,,2,2.10460623,0,,6.25,,,,2722.4,,,,,,,
373,373,,182276,183661,,,2,1.588021064,0,,6.25,,,,3608,,,,,,,
374,374,,183661,185711,,,2,0,,,0,,,,,,,,,,,
375,375,,185711,186298,,,2,1.588021064,0,,6.25,,,,3608,,,,,,,
376,376,,186298,186898,,,2,0,,,0,,,,,,,,,,,
377,377,,186898,187643,,,2,2.183528963,1,,6.25,,,,2624,,,,,,,
378,378,,187643,188569,,,2,0,,,0,,,,,,,,,,,
379,379,,188569,188915,,,2,1.782472623,0,,6.25,,,,3214.4,,,,,,,
380,380,,188915,189289,,,2,2.687420263,1,,6.25,,,,2132,,,,,,,
381,381,,189289,189663,,,2,3.119327091,0,,6.25,,,,1836.8,,,,,,,
382,382,,189663,191243,,,2,0,,,0,,,,,,,,,,,
383,383,,191243,191770,,,2,2.055086083,1,,6.25,,,,2788,,,,,,,
384,384,,191770,192390,,,2,0,,,0,,,,,,,,,,,
385,385,,192390,193118,,,2,1.940914634,1,,6.25,,,,2952,,,,,,,
386,386,,193118,193842,,,2,1.940914634,0,,6.25,,,,2952,,,,,,,
387,387,,193842,194312,,,2,0,,,0,,,,,,,,,,,
388,388,,194312,196472,,,2,0.545882241,1,,6.25,,,,10496,,,,,,,
389,389,,196472,197302,,,2,0,,,0,,,,,,,,,,,
390,390,,197302,198002,,,2,1.746823171,0,,6.25,,,,3280,,,,,,,
391,391,,198002,198832,,,2,0,,,0,,,,,,,,,,,
392,392,,198832,199172,,,2,4.367057927,0,,6.25,,,,1312,,,,,,,
393,393,,199172,202972,,,2,0,,,0,,,,,,,,,,,
394,394,,202972,203412,,,2,1.746823171,1,,6.25,,,,3280,,,,,,,
395,395,,203412,205686,,,2,0,,,0,,,,,,,,,,,
396,396,,205686,206136,,,2,1.746823171,1,,6.25,,,,3280,,,,,,,
397,397,,206136,207966,,,2,0,,,0,,,,,,,,,,,
398,398,,207966,208966,,,2,1.940914634,0,,6.25,,,,2952,,,,,,,
399,399,,208966,209722,,,2,1.425978099,1,,6.25,,,,4018,,,,,,,
400,400,,209722,210992,,,2,0,,,0,,,,,,,,,,,
401,401,,210992,212412,,,2,1.091764482,1,,6.25,,,,5248,,,,,,,
402,402,,212412,213042,,,2,0,,,0,,,,,,,,,,,
403,403,,213042,213732,,,2,0.970457317,0,,6.25,,,,5904,,,,,,,
404,404,,213732,214692,,,2,0,,,0,,,,,,,,,,,
405,405,,214692,215492,,,2,1.247730836,1,,6.25,,,,4592,,,,,,,
406,406,,215492,217692,,,2,0,,,0,,,,,,,,,,,
407,407,,217692,218242,,,2,2.495461672,0,,6.25,,,,2296,,,,,,,
408,408,,218242,220022,,,2,0,,,0,,,,,,,,,,,
409,409,,220022,220652,,,2,1.16454878,1,,6.25,,,,4920,,,,,,,
410,410,,220652,222782,,,2,0,,,0,,,,,,,,,,,
411,411,,222782,223412,,,2,0.873411585,0,,6.25,,,,6560,,,,,,,
412,412,,223412,224448,,,2,0,,,0,,,,,,,,,,,
413,413,,224448,224955,,,2,0.698729268,0,,6.25,,,,8200,,,,,,,
414,414,,224955,227864,,,2,0,,,0,,,,,,,,,,,
415,415,,227864,228724,,,2,0.970457317,0,,6.25,,,,5904,,,,,,,
416,416,,228724,229349,,,2,0,,,0,,,,,,,,,,,
417,417,,229349,230017,,,2,2.183528963,1,,6.25,,,,2624,,,,,,,
418,418,,230017,231997,,,2,0,,,0,,,,,,,,,,,
419,419,,231997,232487,,,2,2.055086083,1,,6.25,,,,2788,,,,,,,
420,420,,232487,235327,,,2,0,,,0,,,,,,,,,,,
421,421,,235327,236537,,,2,0.873411585,0,,6.25,,,,6560,,,,,,,
422,422,,236537,236967,,,2,0,,,0,,,,,,,,,,,
423,423,,236967,238737,,,2,0.545882241,1,,6.25,,,,10496,,,,,,,
424,424,,238737,239207,,,2,3.881829268,0,,6.25,,,,1476,,,,,,,
425,425,,239207,239437,,,2,0,,,0,,,,,,,,,,,
426,426,,239437,239787,,,2,3.295892775,1,,6.25,,,,1738.4,,,,,,,
427,427,,239787,240324,,,2,0,,,0,,,,,,,,,,,
428,428,,240324,240884,,,2,1.343710131,1,,6.25,,,,4264,,,,,,,
429,429,,240884,241208,,,2,0,,,0,,,,,,,,,,,
430,430,,241208,241599,,,2,3.493646341,1,,6.25,,,,1640,,,,,,,
431,431,,241599,242899,,,2,1.343710131,0,,6.25,,,,4264,,,,,,,
432,432,,242899,243899,,,2,0,,,0,,,,,,,,,,,
433,433,,243899,244379,,,2,1.293943089,1,,6.25,,,,4428,,,,,,,
434,434,,244379,244579,,,2,0,,,0,,,,,,,,,,,
435,435,,244579,244909,,,2,3.234857724,1,,6.25,,,,1771.2,,,,,,,
436,436,,244909,245537,,,2,0,,,0,,,,,,,,,,,
437,437,,245537,246470,,,2,1.293943089,1,,6.25,,,,4428,,,,,,,
438,438,,246470,248170,,,2,0,,,0,,,,,,,,,,,
439,439,,248170,250570,,,2,1.838761232,0,,6.25,,,,3116,,,,,,,
440,440,,250570,251894,,,2,0,,,0,,,,,,,,,,,
441,441,,251894,252224,,,2,4.852286585,1,,6.25,,,,1180.8,,,,,,,
442,442,,252224,252534,,,2,4.852286585,0,,6.25,,,,1180.8,,,,,,,
443,443,,252534,252844,,,2,0,,,0,,,,,,,,,,,
444,444,,252844,253102,,,2,4.479033771,0,,6.25,,,,1279.2,,,,,,,
445,445,,253102,253642,,,2,0,,,0,,,,,,,,,,,
446,446,,253642,253942,,,2,2.495461672,0,,6.25,,,,2296,,,,,,,
447,447,,253942,254232,,,2,3.797441676,1,,6.25,,,,1508.8,,,,,,,
448,448,,254232,254487,,,2,0,,,0,,,,,,,,,,,
449,449,,0,3500,,,5,0.335927533,1,,6.25,,,,17056,,,,,,,
450,450,,3500,17200,,,5,0,,,0,,,,,,,,,,,
451,451,,17200,20900,,,5,0.426054432,0,,6.25,,,,13448,,,,,,,
452,452,,20900,23700,,,5,0.317604213,1,,6.25,,,,18040,,,,,,,
453,453,,23700,28050,,,5,0.342514347,0,,6.25,,,,16728,,,,,,,
454,454,,28050,31930,,,5,0.468945818,1,,6.25,,,,12218,,,,,,,
455,455,,31930,32720,,,5,0.776365854,0,,6.25,,,,7380,,,,,,,
456,456,,32720,36260,,,5,0.388182927,1,,6.25,,,,14760,,,,,,,
457,457,,36260,37320,,,5,0,,,0,,,,,,,,,,,
458,458,,37320,39160,,,5,0.529340355,0,,6.25,,,,10824,,,,,,,
459,459,,39160,42360,,,5,0,,,0,,,,,,,,,,,
460,460,,42360,45790,,,5,0.406237947,1,,6.25,,,,14104,,,,,,,
